R1 
Energy (eV) EEDF (eV-3/2) Anisotropy
  0.7008E-03	   210.3    	  0.3786E-04
  0.2131E-02	   196.0    	  0.5937E-04
  0.3619E-02	   182.3    	  0.9847E-04
  0.5163E-02	   169.9    	  0.1333E-03
  0.6765E-02	   158.9    	  0.1666E-03
  0.8424E-02	   148.8    	  0.1997E-03
  0.1014E-01	   139.6    	  0.2330E-03
  0.1191E-01	   130.9    	  0.2671E-03
  0.1374E-01	   122.9    	  0.3025E-03
  0.1563E-01	   115.3    	  0.3392E-03
  0.1758E-01	   108.2    	  0.3774E-03
  0.1958E-01	   101.5    	  0.4172E-03
  0.2164E-01	   95.12    	  0.4587E-03
  0.2376E-01	   89.06    	  0.5024E-03
  0.2593E-01	   83.31    	  0.5483E-03
  0.2816E-01	   77.85    	  0.5969E-03
  0.3045E-01	   72.65    	  0.6481E-03
  0.3279E-01	   67.71    	  0.7023E-03
  0.3520E-01	   63.01    	  0.7600E-03
  0.3766E-01	   58.54    	  0.8216E-03
  0.4017E-01	   54.29    	  0.8875E-03
  0.4275E-01	   50.24    	  0.9583E-03
  0.4538E-01	   46.38    	  0.1032E-02
  0.4807E-01	   42.73    	  0.1104E-02
  0.5081E-01	   39.30    	  0.1175E-02
  0.5362E-01	   36.08    	  0.1247E-02
  0.5648E-01	   33.08    	  0.1322E-02
  0.5940E-01	   30.27    	  0.1400E-02
  0.6237E-01	   27.65    	  0.1483E-02
  0.6540E-01	   25.21    	  0.1570E-02
  0.6849E-01	   22.94    	  0.1664E-02
  0.7164E-01	   20.82    	  0.1765E-02
  0.7484E-01	   18.85    	  0.1865E-02
  0.7810E-01	   17.03    	  0.1954E-02
  0.8142E-01	   15.37    	  0.2037E-02
  0.8479E-01	   13.86    	  0.2117E-02
  0.8823E-01	   12.48    	  0.2194E-02
  0.9172E-01	   11.24    	  0.2269E-02
  0.9526E-01	   10.11    	  0.2344E-02
  0.9887E-01	   9.096    	  0.2419E-02
  0.1025    	   8.178    	  0.2495E-02
  0.1062    	   7.348    	  0.2570E-02
  0.1100    	   6.599    	  0.2645E-02
  0.1139    	   5.924    	  0.2721E-02
  0.1177    	   5.315    	  0.2796E-02
  0.1217    	   4.768    	  0.2872E-02
  0.1257    	   4.275    	  0.2948E-02
  0.1298    	   3.832    	  0.3025E-02
  0.1339    	   3.434    	  0.3104E-02
  0.1381    	   3.077    	  0.3183E-02
  0.1423    	   2.755    	  0.3263E-02
  0.1466    	   2.467    	  0.3343E-02
  0.1509    	   2.208    	  0.3423E-02
  0.1553    	   1.975    	  0.3504E-02
  0.1598    	   1.766    	  0.3586E-02
  0.1643    	   1.579    	  0.3669E-02
  0.1689    	   1.410    	  0.3754E-02
  0.1735    	   1.259    	  0.3841E-02
  0.1782    	   1.123    	  0.3929E-02
  0.1830    	   1.002    	  0.4019E-02
  0.1878    	  0.8928    	  0.4110E-02
  0.1926    	  0.7955    	  0.4202E-02
  0.1975    	  0.7084    	  0.4296E-02
  0.2025    	  0.6305    	  0.4391E-02
  0.2076    	  0.5608    	  0.4487E-02
  0.2126    	  0.4985    	  0.4584E-02
  0.2178    	  0.4429    	  0.4682E-02
  0.2230    	  0.3932    	  0.4782E-02
  0.2283    	  0.3489    	  0.4882E-02
  0.2336    	  0.3093    	  0.4985E-02
  0.2390    	  0.2741    	  0.5088E-02
  0.2444    	  0.2427    	  0.5193E-02
  0.2499    	  0.2148    	  0.5300E-02
  0.2554    	  0.1900    	  0.5407E-02
  0.2610    	  0.1679    	  0.5517E-02
  0.2667    	  0.1483    	  0.5628E-02
  0.2724    	  0.1309    	  0.5740E-02
  0.2782    	  0.1155    	  0.5854E-02
  0.2840    	  0.1018    	  0.5970E-02
  0.2899    	  0.8966E-01	  0.6087E-02
  0.2959    	  0.7893E-01	  0.6206E-02
  0.3019    	  0.6943E-01	  0.6326E-02
  0.3079    	  0.6103E-01	  0.6448E-02
  0.3141    	  0.5361E-01	  0.6571E-02
  0.3202    	  0.4706E-01	  0.6696E-02
  0.3265    	  0.4128E-01	  0.6822E-02
  0.3328    	  0.3618E-01	  0.6949E-02
  0.3391    	  0.3169E-01	  0.7078E-02
  0.3455    	  0.2774E-01	  0.7209E-02
  0.3520    	  0.2426E-01	  0.7341E-02
  0.3585    	  0.2120E-01	  0.7475E-02
  0.3651    	  0.1852E-01	  0.7611E-02
  0.3717    	  0.1616E-01	  0.7749E-02
  0.3784    	  0.1409E-01	  0.7889E-02
  0.3852    	  0.1228E-01	  0.8031E-02
  0.3920    	  0.1069E-01	  0.8176E-02
  0.3988    	  0.9303E-02	  0.8322E-02
  0.4058    	  0.8087E-02	  0.8471E-02
  0.4127    	  0.7025E-02	  0.8621E-02
  0.4198    	  0.6097E-02	  0.8773E-02
  0.4269    	  0.5287E-02	  0.8927E-02
  0.4340    	  0.4581E-02	  0.9083E-02
  0.4412    	  0.3965E-02	  0.9242E-02
  0.4485    	  0.3430E-02	  0.9404E-02
  0.4558    	  0.2964E-02	  0.9568E-02
  0.4632    	  0.2559E-02	  0.9735E-02
  0.4706    	  0.2207E-02	  0.9906E-02
  0.4781    	  0.1902E-02	  0.1008E-01
  0.4857    	  0.1637E-02	  0.1026E-01
  0.4933    	  0.1408E-02	  0.1044E-01
  0.5009    	  0.1210E-02	  0.1063E-01
  0.5087    	  0.1038E-02	  0.1083E-01
  0.5164    	  0.8899E-03	  0.1104E-01
  0.5243    	  0.7618E-03	  0.1125E-01
  0.5322    	  0.6514E-03	  0.1146E-01
  0.5401    	  0.5563E-03	  0.1167E-01
  0.5481    	  0.4745E-03	  0.1189E-01
  0.5562    	  0.4043E-03	  0.1210E-01
  0.5643    	  0.3441E-03	  0.1232E-01
  0.5725    	  0.2925E-03	  0.1254E-01
  0.5807    	  0.2483E-03	  0.1277E-01
  0.5890    	  0.2106E-03	  0.1300E-01
  0.5974    	  0.1783E-03	  0.1323E-01
  0.6058    	  0.1509E-03	  0.1347E-01
  0.6143    	  0.1274E-03	  0.1371E-01
  0.6228    	  0.1075E-03	  0.1396E-01
  0.6314    	  0.9063E-04	  0.1420E-01
  0.6400    	  0.7629E-04	  0.1445E-01
  0.6487    	  0.6413E-04	  0.1470E-01
  0.6574    	  0.5385E-04	  0.1496E-01
  0.6662    	  0.4516E-04	  0.1521E-01
  0.6751    	  0.3782E-04	  0.1548E-01
  0.6840    	  0.3164E-04	  0.1574E-01
  0.6930    	  0.2644E-04	  0.1601E-01
  0.7021    	  0.2206E-04	  0.1628E-01
  0.7111    	  0.1838E-04	  0.1655E-01
  0.7203    	  0.1529E-04	  0.1682E-01
  0.7295    	  0.1270E-04	  0.1710E-01
  0.7388    	  0.1053E-04	  0.1737E-01
  0.7481    	  0.8719E-05	  0.1764E-01
  0.7575    	  0.7208E-05	  0.1792E-01
  0.7669    	  0.5950E-05	  0.1820E-01
  0.7764    	  0.4904E-05	  0.1848E-01
  0.7860    	  0.4036E-05	  0.1876E-01
  0.7956    	  0.3317E-05	  0.1905E-01
  0.8052    	  0.2722E-05	  0.1933E-01
  0.8150    	  0.2230E-05	  0.1962E-01
  0.8247    	  0.1824E-05	  0.1991E-01
  0.8346    	  0.1490E-05	  0.2020E-01
  0.8445    	  0.1216E-05	  0.2050E-01
  0.8544    	  0.9903E-06	  0.2079E-01
  0.8644    	  0.8054E-06	  0.2109E-01
  0.8745    	  0.6541E-06	  0.2139E-01
  0.8846    	  0.5305E-06	  0.2169E-01
  0.8948    	  0.4296E-06	  0.2199E-01
  0.9051    	  0.3474E-06	  0.2230E-01
  0.9154    	  0.2805E-06	  0.2261E-01
  0.9257    	  0.2262E-06	  0.2292E-01
  0.9361    	  0.1821E-06	  0.2324E-01
  0.9466    	  0.1464E-06	  0.2356E-01
  0.9571    	  0.1175E-06	  0.2388E-01
  0.9677    	  0.9419E-07	  0.2421E-01
  0.9783    	  0.7538E-07	  0.2454E-01
  0.9890    	  0.6024E-07	  0.2488E-01
  0.9998    	  0.4806E-07	  0.2522E-01
   1.011    	  0.3828E-07	  0.2557E-01
   1.021    	  0.3044E-07	  0.2592E-01
   1.032    	  0.2416E-07	  0.2627E-01
   1.043    	  0.1915E-07	  0.2662E-01
   1.054    	  0.1515E-07	  0.2697E-01
   1.066    	  0.1196E-07	  0.2732E-01
   1.077    	  0.9430E-08	  0.2768E-01
   1.088    	  0.7422E-08	  0.2804E-01
   1.099    	  0.5832E-08	  0.2840E-01
   1.110    	  0.4574E-08	  0.2875E-01
   1.122    	  0.3582E-08	  0.2912E-01
   1.133    	  0.2801E-08	  0.2948E-01
   1.145    	  0.2186E-08	  0.2984E-01
   1.156    	  0.1704E-08	  0.3020E-01
   1.168    	  0.1325E-08	  0.3057E-01
   1.180    	  0.1030E-08	  0.3093E-01
   1.191    	  0.7985E-09	  0.3130E-01
   1.203    	  0.6183E-09	  0.3167E-01
   1.215    	  0.4781E-09	  0.3203E-01
   1.227    	  0.3691E-09	  0.3239E-01
   1.239    	  0.2845E-09	  0.3275E-01
   1.251    	  0.2190E-09	  0.3311E-01
   1.263    	  0.1683E-09	  0.3346E-01
   1.275    	  0.1292E-09	  0.3380E-01
   1.287    	  0.9908E-10	  0.3412E-01
   1.299    	  0.7589E-10	  0.3443E-01
   1.312    	  0.5808E-10	  0.3471E-01
   1.324    	  0.4441E-10	  0.3501E-01
   1.337    	  0.3391E-10	  0.3539E-01
   1.349    	  0.2584E-10	  0.2026E-01


R2  
Energy (eV) EEDF (eV-3/2) Anisotropy
  0.7279E-03	   196.8    	  0.5353E-04
  0.2215E-02	   183.2    	  0.8370E-04
  0.3763E-02	   170.2    	  0.1382E-03
  0.5373E-02	   158.7    	  0.1866E-03
  0.7045E-02	   148.3    	  0.2330E-03
  0.8778E-02	   138.9    	  0.2792E-03
  0.1057E-01	   130.2    	  0.3258E-03
  0.1243E-01	   122.2    	  0.3738E-03
  0.1435E-01	   114.6    	  0.4236E-03
  0.1633E-01	   107.5    	  0.4753E-03
  0.1837E-01	   100.9    	  0.5293E-03
  0.2047E-01	   94.56    	  0.5855E-03
  0.2264E-01	   88.57    	  0.6444E-03
  0.2487E-01	   82.89    	  0.7064E-03
  0.2715E-01	   77.49    	  0.7719E-03
  0.2950E-01	   72.35    	  0.8411E-03
  0.3192E-01	   67.47    	  0.9143E-03
  0.3439E-01	   62.83    	  0.9922E-03
  0.3693E-01	   58.41    	  0.1075E-02
  0.3952E-01	   54.21    	  0.1164E-02
  0.4218E-01	   50.21    	  0.1260E-02
  0.4490E-01	   46.40    	  0.1361E-02
  0.4768E-01	   42.77    	  0.1460E-02
  0.5053E-01	   39.37    	  0.1557E-02
  0.5343E-01	   36.17    	  0.1656E-02
  0.5640E-01	   33.18    	  0.1759E-02
  0.5943E-01	   30.38    	  0.1866E-02
  0.6252E-01	   27.77    	  0.1980E-02
  0.6567E-01	   25.34    	  0.2100E-02
  0.6888E-01	   23.07    	  0.2229E-02
  0.7216E-01	   20.95    	  0.2367E-02
  0.7549E-01	   18.98    	  0.2500E-02
  0.7889E-01	   17.17    	  0.2619E-02
  0.8235E-01	   15.51    	  0.2731E-02
  0.8588E-01	   13.99    	  0.2838E-02
  0.8946E-01	   12.62    	  0.2942E-02
  0.9310E-01	   11.38    	  0.3044E-02
  0.9681E-01	   10.25    	  0.3146E-02
  0.1006    	   9.230    	  0.3249E-02
  0.1044    	   8.308    	  0.3351E-02
  0.1083    	   7.475    	  0.3454E-02
  0.1123    	   6.722    	  0.3556E-02
  0.1163    	   6.043    	  0.3659E-02
  0.1203    	   5.430    	  0.3762E-02
  0.1245    	   4.878    	  0.3865E-02
  0.1287    	   4.380    	  0.3970E-02
  0.1329    	   3.932    	  0.4076E-02
  0.1373    	   3.529    	  0.4183E-02
  0.1417    	   3.166    	  0.4292E-02
  0.1461    	   2.840    	  0.4401E-02
  0.1506    	   2.547    	  0.4510E-02
  0.1552    	   2.283    	  0.4620E-02
  0.1598    	   2.045    	  0.4732E-02
  0.1645    	   1.831    	  0.4845E-02
  0.1693    	   1.639    	  0.4961E-02
  0.1741    	   1.466    	  0.5079E-02
  0.1790    	   1.310    	  0.5200E-02
  0.1839    	   1.171    	  0.5323E-02
  0.1889    	   1.046    	  0.5447E-02
  0.1940    	  0.9336    	  0.5574E-02
  0.1991    	  0.8330    	  0.5702E-02
  0.2043    	  0.7428    	  0.5832E-02
  0.2095    	  0.6620    	  0.5963E-02
  0.2148    	  0.5895    	  0.6096E-02
  0.2202    	  0.5247    	  0.6231E-02
  0.2256    	  0.4667    	  0.6367E-02
  0.2311    	  0.4149    	  0.6506E-02
  0.2367    	  0.3686    	  0.6646E-02
  0.2423    	  0.3272    	  0.6789E-02
  0.2480    	  0.2903    	  0.6933E-02
  0.2537    	  0.2574    	  0.7080E-02
  0.2595    	  0.2280    	  0.7228E-02
  0.2654    	  0.2019    	  0.7379E-02
  0.2713    	  0.1786    	  0.7532E-02
  0.2773    	  0.1580    	  0.7688E-02
  0.2834    	  0.1396    	  0.7845E-02
  0.2895    	  0.1233    	  0.8005E-02
  0.2957    	  0.1088    	  0.8168E-02
  0.3019    	  0.9592E-01	  0.8333E-02
  0.3082    	  0.8452E-01	  0.8499E-02
  0.3146    	  0.7442E-01	  0.8667E-02
  0.3210    	  0.6548E-01	  0.8838E-02
  0.3275    	  0.5758E-01	  0.9010E-02
  0.3340    	  0.5059E-01	  0.9185E-02
  0.3406    	  0.4441E-01	  0.9362E-02
  0.3473    	  0.3896E-01	  0.9542E-02
  0.3540    	  0.3415E-01	  0.9724E-02
  0.3608    	  0.2992E-01	  0.9908E-02
  0.3676    	  0.2619E-01	  0.1010E-01
  0.3746    	  0.2291E-01	  0.1029E-01
  0.3815    	  0.2002E-01	  0.1048E-01
  0.3886    	  0.1748E-01	  0.1068E-01
  0.3957    	  0.1525E-01	  0.1088E-01
  0.4028    	  0.1330E-01	  0.1108E-01
  0.4101    	  0.1159E-01	  0.1128E-01
  0.4173    	  0.1009E-01	  0.1149E-01
  0.4247    	  0.8770E-02	  0.1170E-01
  0.4321    	  0.7620E-02	  0.1192E-01
  0.4396    	  0.6615E-02	  0.1213E-01
  0.4471    	  0.5738E-02	  0.1235E-01
  0.4547    	  0.4972E-02	  0.1258E-01
  0.4623    	  0.4304E-02	  0.1281E-01
  0.4701    	  0.3723E-02	  0.1305E-01
  0.4778    	  0.3216E-02	  0.1329E-01
  0.4857    	  0.2776E-02	  0.1353E-01
  0.4936    	  0.2394E-02	  0.1379E-01
  0.5015    	  0.2062E-02	  0.1405E-01
  0.5096    	  0.1774E-02	  0.1432E-01
  0.5176    	  0.1524E-02	  0.1461E-01
  0.5258    	  0.1308E-02	  0.1490E-01
  0.5340    	  0.1121E-02	  0.1519E-01
  0.5423    	  0.9594E-03	  0.1548E-01
  0.5506    	  0.8202E-03	  0.1578E-01
  0.5590    	  0.7004E-03	  0.1608E-01
  0.5675    	  0.5974E-03	  0.1638E-01
  0.5760    	  0.5089E-03	  0.1669E-01
  0.5845    	  0.4329E-03	  0.1700E-01
  0.5932    	  0.3679E-03	  0.1732E-01
  0.6019    	  0.3122E-03	  0.1765E-01
  0.6107    	  0.2646E-03	  0.1798E-01
  0.6195    	  0.2240E-03	  0.1832E-01
  0.6284    	  0.1893E-03	  0.1865E-01
  0.6373    	  0.1599E-03	  0.1899E-01
  0.6463    	  0.1348E-03	  0.1934E-01
  0.6554    	  0.1135E-03	  0.1969E-01
  0.6645    	  0.9548E-04	  0.2004E-01
  0.6737    	  0.8020E-04	  0.2040E-01
  0.6830    	  0.6728E-04	  0.2077E-01
  0.6923    	  0.5637E-04	  0.2114E-01
  0.7017    	  0.4717E-04	  0.2152E-01
  0.7111    	  0.3940E-04	  0.2189E-01
  0.7206    	  0.3286E-04	  0.2226E-01
  0.7302    	  0.2737E-04	  0.2264E-01
  0.7398    	  0.2275E-04	  0.2302E-01
  0.7495    	  0.1889E-04	  0.2340E-01
  0.7593    	  0.1565E-04	  0.2378E-01
  0.7691    	  0.1295E-04	  0.2416E-01
  0.7790    	  0.1070E-04	  0.2455E-01
  0.7889    	  0.8827E-05	  0.2494E-01
  0.7989    	  0.7271E-05	  0.2534E-01
  0.8089    	  0.5979E-05	  0.2573E-01
  0.8191    	  0.4909E-05	  0.2613E-01
  0.8293    	  0.4025E-05	  0.2653E-01
  0.8395    	  0.3295E-05	  0.2694E-01
  0.8498    	  0.2693E-05	  0.2735E-01
  0.8602    	  0.2198E-05	  0.2776E-01
  0.8706    	  0.1791E-05	  0.2817E-01
  0.8811    	  0.1457E-05	  0.2858E-01
  0.8916    	  0.1184E-05	  0.2900E-01
  0.9023    	  0.9603E-06	  0.2943E-01
  0.9129    	  0.7779E-06	  0.2986E-01
  0.9237    	  0.6291E-06	  0.3029E-01
  0.9345    	  0.5080E-06	  0.3073E-01
  0.9453    	  0.4096E-06	  0.3117E-01
  0.9563    	  0.3298E-06	  0.3162E-01
  0.9672    	  0.2651E-06	  0.3207E-01
  0.9783    	  0.2127E-06	  0.3253E-01
  0.9894    	  0.1704E-06	  0.3300E-01
   1.001    	  0.1364E-06	  0.3347E-01
   1.012    	  0.1089E-06	  0.3396E-01
   1.023    	  0.8679E-07	  0.3444E-01
   1.034    	  0.6906E-07	  0.3493E-01
   1.046    	  0.5485E-07	  0.3541E-01
   1.057    	  0.4349E-07	  0.3590E-01
   1.069    	  0.3442E-07	  0.3640E-01
   1.080    	  0.2719E-07	  0.3689E-01
   1.092    	  0.2145E-07	  0.3739E-01
   1.104    	  0.1689E-07	  0.3789E-01
   1.116    	  0.1327E-07	  0.3839E-01
   1.127    	  0.1041E-07	  0.3889E-01
   1.139    	  0.8155E-08	  0.3939E-01
   1.151    	  0.6376E-08	  0.3990E-01
   1.163    	  0.4977E-08	  0.4041E-01
   1.176    	  0.3879E-08	  0.4092E-01
   1.188    	  0.3017E-08	  0.4144E-01
   1.200    	  0.2343E-08	  0.4195E-01
   1.212    	  0.1817E-08	  0.4247E-01
   1.224    	  0.1406E-08	  0.4299E-01
   1.237    	  0.1087E-08	  0.4351E-01
   1.249    	  0.8385E-09	  0.4403E-01
   1.262    	  0.6459E-09	  0.4455E-01
   1.274    	  0.4967E-09	  0.4508E-01
   1.287    	  0.3813E-09	  0.4560E-01
   1.300    	  0.2923E-09	  0.4612E-01
   1.313    	  0.2237E-09	  0.4664E-01
   1.325    	  0.1710E-09	  0.4715E-01
   1.338    	  0.1304E-09	  0.4765E-01
   1.351    	  0.9938E-10	  0.4815E-01
   1.364    	  0.7560E-10	  0.4864E-01
   1.377    	  0.5743E-10	  0.4910E-01
   1.391    	  0.4358E-10	  0.4954E-01
   1.404    	  0.3304E-10	  0.4994E-01
   1.417    	  0.2503E-10	  0.2855E-01


R3  
Energy (eV) EEDF (eV-3/2) Anisotropy
  0.8301E-03	   147.3    	  0.1022E-03
  0.2530E-02	   136.8    	  0.1574E-03
  0.4310E-02	   127.0    	  0.2554E-03
  0.6171E-02	   118.4    	  0.3418E-03
  0.8111E-02	   110.8    	  0.4257E-03
  0.1013E-01	   103.9    	  0.5094E-03
  0.1223E-01	   97.45    	  0.5952E-03
  0.1441E-01	   91.48    	  0.6842E-03
  0.1667E-01	   85.89    	  0.7769E-03
  0.1901E-01	   80.62    	  0.8737E-03
  0.2143E-01	   75.63    	  0.9747E-03
  0.2393E-01	   70.90    	  0.1081E-02
  0.2651E-01	   66.41    	  0.1194E-02
  0.2917E-01	   62.13    	  0.1313E-02
  0.3191E-01	   58.06    	  0.1439E-02
  0.3473E-01	   54.18    	  0.1574E-02
  0.3763E-01	   50.48    	  0.1719E-02
  0.4061E-01	   46.96    	  0.1874E-02
  0.4367E-01	   43.59    	  0.2040E-02
  0.4681E-01	   40.37    	  0.2210E-02
  0.5003E-01	   37.32    	  0.2376E-02
  0.5333E-01	   34.44    	  0.2543E-02
  0.5670E-01	   31.74    	  0.2717E-02
  0.6016E-01	   29.19    	  0.2899E-02
  0.6370E-01	   26.81    	  0.3092E-02
  0.6732E-01	   24.57    	  0.3297E-02
  0.7102E-01	   22.48    	  0.3517E-02
  0.7480E-01	   20.51    	  0.3736E-02
  0.7866E-01	   18.69    	  0.3934E-02
  0.8260E-01	   17.01    	  0.4116E-02
  0.8662E-01	   15.46    	  0.4289E-02
  0.9072E-01	   14.05    	  0.4457E-02
  0.9490E-01	   12.77    	  0.4624E-02
  0.9916E-01	   11.60    	  0.4790E-02
  0.1035    	   10.53    	  0.4957E-02
  0.1079    	   9.558    	  0.5123E-02
  0.1124    	   8.672    	  0.5290E-02
  0.1170    	   7.866    	  0.5457E-02
  0.1216    	   7.133    	  0.5624E-02
  0.1264    	   6.467    	  0.5793E-02
  0.1312    	   5.862    	  0.5965E-02
  0.1361    	   5.312    	  0.6138E-02
  0.1411    	   4.813    	  0.6315E-02
  0.1461    	   4.360    	  0.6493E-02
  0.1513    	   3.948    	  0.6672E-02
  0.1565    	   3.575    	  0.6852E-02
  0.1618    	   3.235    	  0.7035E-02
  0.1672    	   2.925    	  0.7222E-02
  0.1726    	   2.644    	  0.7414E-02
  0.1782    	   2.389    	  0.7611E-02
  0.1838    	   2.158    	  0.7812E-02
  0.1895    	   1.948    	  0.8016E-02
  0.1953    	   1.758    	  0.8225E-02
  0.2011    	   1.585    	  0.8436E-02
  0.2071    	   1.429    	  0.8650E-02
  0.2131    	   1.287    	  0.8868E-02
  0.2192    	   1.159    	  0.9088E-02
  0.2254    	   1.043    	  0.9313E-02
  0.2316    	  0.9376    	  0.9541E-02
  0.2380    	  0.8425    	  0.9772E-02
  0.2444    	  0.7566    	  0.1001E-01
  0.2509    	  0.6790    	  0.1025E-01
  0.2574    	  0.6090    	  0.1049E-01
  0.2641    	  0.5458    	  0.1074E-01
  0.2708    	  0.4889    	  0.1099E-01
  0.2777    	  0.4376    	  0.1125E-01
  0.2846    	  0.3914    	  0.1151E-01
  0.2915    	  0.3498    	  0.1178E-01
  0.2986    	  0.3125    	  0.1205E-01
  0.3057    	  0.2789    	  0.1233E-01
  0.3129    	  0.2487    	  0.1261E-01
  0.3202    	  0.2217    	  0.1289E-01
  0.3276    	  0.1974    	  0.1318E-01
  0.3351    	  0.1756    	  0.1347E-01
  0.3426    	  0.1562    	  0.1377E-01
  0.3502    	  0.1388    	  0.1407E-01
  0.3579    	  0.1232    	  0.1438E-01
  0.3657    	  0.1093    	  0.1469E-01
  0.3736    	  0.9685E-01	  0.1501E-01
  0.3815    	  0.8577E-01	  0.1533E-01
  0.3895    	  0.7589E-01	  0.1567E-01
  0.3976    	  0.6710E-01	  0.1601E-01
  0.4058    	  0.5927E-01	  0.1635E-01
  0.4141    	  0.5230E-01	  0.1670E-01
  0.4224    	  0.4611E-01	  0.1706E-01
  0.4308    	  0.4062E-01	  0.1742E-01
  0.4393    	  0.3574E-01	  0.1779E-01
  0.4479    	  0.3142E-01	  0.1817E-01
  0.4565    	  0.2759E-01	  0.1856E-01
  0.4653    	  0.2421E-01	  0.1896E-01
  0.4741    	  0.2121E-01	  0.1937E-01
  0.4830    	  0.1857E-01	  0.1979E-01
  0.4920    	  0.1624E-01	  0.2023E-01
  0.5010    	  0.1418E-01	  0.2068E-01
  0.5102    	  0.1236E-01	  0.2115E-01
  0.5194    	  0.1077E-01	  0.2164E-01
  0.5287    	  0.9366E-02	  0.2214E-01
  0.5380    	  0.8135E-02	  0.2264E-01
  0.5475    	  0.7056E-02	  0.2315E-01
  0.5570    	  0.6113E-02	  0.2366E-01
  0.5667    	  0.5288E-02	  0.2418E-01
  0.5763    	  0.4569E-02	  0.2471E-01
  0.5861    	  0.3942E-02	  0.2525E-01
  0.5960    	  0.3396E-02	  0.2580E-01
  0.6059    	  0.2922E-02	  0.2637E-01
  0.6159    	  0.2511E-02	  0.2694E-01
  0.6260    	  0.2154E-02	  0.2752E-01
  0.6362    	  0.1846E-02	  0.2810E-01
