R1  
Energy (eV) EEDF (eV-3/2) Anisotropy
  0.1008E-02	   290.9    	  0.6127E-05
  0.3083E-02	   258.9    	  0.9502E-05
  0.5276E-02	   230.7    	  0.1561E-04
  0.7588E-02	   206.5    	  0.2138E-04
  0.1002E-01	   185.3    	  0.2722E-04
  0.1256E-01	   166.3    	  0.3330E-04
  0.1523E-01	   149.2    	  0.3974E-04
  0.1801E-01	   133.6    	  0.4662E-04
  0.2091E-01	   119.5    	  0.5398E-04
  0.2393E-01	   106.5    	  0.6191E-04
  0.2707E-01	   94.68    	  0.7055E-04
  0.3033E-01	   83.83    	  0.7997E-04
  0.3370E-01	   73.90    	  0.9031E-04
  0.3719E-01	   64.84    	  0.1018E-03
  0.4080E-01	   56.57    	  0.1145E-03
  0.4453E-01	   49.02    	  0.1286E-03
  0.4837E-01	   42.17    	  0.1429E-03
  0.5234E-01	   36.09    	  0.1568E-03
  0.5642E-01	   30.73    	  0.1712E-03
  0.6062E-01	   26.03    	  0.1868E-03
  0.6493E-01	   21.93    	  0.2039E-03
  0.6937E-01	   18.35    	  0.2231E-03
  0.7392E-01	   15.23    	  0.2437E-03
  0.7859E-01	   12.55    	  0.2631E-03
  0.8338E-01	   10.30    	  0.2803E-03
  0.8829E-01	   8.421    	  0.2965E-03
  0.9332E-01	   6.870    	  0.3122E-03
  0.9846E-01	   5.593    	  0.3280E-03
  0.1037    	   4.545    	  0.3438E-03
  0.1091    	   3.685    	  0.3596E-03
  0.1146    	   2.982    	  0.3755E-03
  0.1202    	   2.410    	  0.3915E-03
  0.1259    	   1.944    	  0.4076E-03
  0.1318    	   1.566    	  0.4240E-03
  0.1378    	   1.260    	  0.4406E-03
  0.1439    	   1.012    	  0.4576E-03
  0.1501    	  0.8120    	  0.4745E-03
  0.1564    	  0.6505    	  0.4916E-03
  0.1628    	  0.5202    	  0.5089E-03
  0.1694    	  0.4151    	  0.5268E-03
  0.1761    	  0.3307    	  0.5452E-03
  0.1829    	  0.2630    	  0.5640E-03
  0.1898    	  0.2087    	  0.5834E-03
  0.1968    	  0.1654    	  0.6031E-03
  0.2040    	  0.1308    	  0.6231E-03
  0.2112    	  0.1033    	  0.6434E-03
  0.2186    	  0.8134E-01	  0.6641E-03
  0.2261    	  0.6393E-01	  0.6853E-03
  0.2337    	  0.5015E-01	  0.7068E-03
  0.2415    	  0.3925E-01	  0.7288E-03
  0.2493    	  0.3066E-01	  0.7511E-03
  0.2573    	  0.2390E-01	  0.7740E-03
  0.2654    	  0.1858E-01	  0.7972E-03
  0.2736    	  0.1442E-01	  0.8210E-03
  0.2819    	  0.1117E-01	  0.8452E-03
  0.2904    	  0.8632E-02	  0.8699E-03
  0.2990    	  0.6657E-02	  0.8951E-03
  0.3076    	  0.5122E-02	  0.9207E-03
  0.3164    	  0.3932E-02	  0.9467E-03
  0.3254    	  0.3011E-02	  0.9732E-03
  0.3344    	  0.2301E-02	  0.1000E-02
  0.3436    	  0.1754E-02	  0.1027E-02
  0.3528    	  0.1335E-02	  0.1055E-02
  0.3622    	  0.1013E-02	  0.1084E-02
  0.3717    	  0.7671E-03	  0.1113E-02
  0.3814    	  0.5796E-03	  0.1142E-02
  0.3911    	  0.4369E-03	  0.1172E-02
  0.4010    	  0.3286E-03	  0.1203E-02
  0.4110    	  0.2465E-03	  0.1234E-02
  0.4211    	  0.1845E-03	  0.1265E-02
  0.4313    	  0.1377E-03	  0.1298E-02
  0.4416    	  0.1026E-03	  0.1330E-02
  0.4521    	  0.7619E-04	  0.1364E-02
  0.4626    	  0.5645E-04	  0.1398E-02
  0.4733    	  0.4171E-04	  0.1433E-02
  0.4841    	  0.3074E-04	  0.1469E-02
  0.4951    	  0.2260E-04	  0.1506E-02
  0.5061    	  0.1656E-04	  0.1546E-02
  0.5173    	  0.1209E-04	  0.1587E-02
  0.5285    	  0.8804E-05	  0.1630E-02
  0.5399    	  0.6387E-05	  0.1674E-02
  0.5515    	  0.4618E-05	  0.1718E-02
  0.5631    	  0.3328E-05	  0.1763E-02
  0.5748    	  0.2390E-05	  0.1808E-02
  0.5867    	  0.1711E-05	  0.1855E-02
  0.5987    	  0.1221E-05	  0.1902E-02
  0.6108    	  0.8680E-06	  0.1952E-02
  0.6230    	  0.6150E-06	  0.2001E-02
  0.6354    	  0.4342E-06	  0.2052E-02
  0.6478    	  0.3055E-06	  0.2102E-02
  0.6604    	  0.2143E-06	  0.2153E-02
  0.6731    	  0.1498E-06	  0.2205E-02
  0.6859    	  0.1044E-06	  0.2259E-02
  0.6989    	  0.7249E-07	  0.2318E-02
  0.7119    	  0.5005E-07	  0.2378E-02
  0.7251    	  0.3444E-07	  0.1427E-02


R2  
Energy (eV) EEDF (eV-3/2) Anisotropy
  0.1014E-02	   290.0    	  0.1237E-04
  0.3102E-02	   257.9    	  0.1918E-04
  0.5308E-02	   229.7    	  0.3148E-04
  0.7633E-02	   205.6    	  0.4312E-04
  0.1008E-01	   184.4    	  0.5489E-04
  0.1264E-01	   165.4    	  0.6717E-04
  0.1532E-01	   148.3    	  0.8018E-04
  0.1812E-01	   132.9    	  0.9406E-04
  0.2104E-01	   118.7    	  0.1089E-03
  0.2407E-01	   105.8    	  0.1250E-03
  0.2723E-01	   94.01    	  0.1424E-03
  0.3050E-01	   83.20    	  0.1615E-03
  0.3390E-01	   73.31    	  0.1824E-03
  0.3741E-01	   64.28    	  0.2056E-03
  0.4104E-01	   56.05    	  0.2315E-03
  0.4479E-01	   48.53    	  0.2599E-03
  0.4865E-01	   41.73    	  0.2886E-03
  0.5264E-01	   35.69    	  0.3165E-03
  0.5675E-01	   30.38    	  0.3457E-03
  0.6097E-01	   25.72    	  0.3772E-03
  0.6531E-01	   21.65    	  0.4119E-03
  0.6977E-01	   18.10    	  0.4509E-03
  0.7435E-01	   15.01    	  0.4923E-03
  0.7905E-01	   12.36    	  0.5309E-03
  0.8387E-01	   10.14    	  0.5651E-03
  0.8880E-01	   8.286    	  0.5976E-03
  0.9386E-01	   6.757    	  0.6292E-03
  0.9903E-01	   5.499    	  0.6609E-03
  0.1043    	   4.467    	  0.6926E-03
  0.1097    	   3.621    	  0.7245E-03
  0.1153    	   2.930    	  0.7565E-03
  0.1209    	   2.366    	  0.7885E-03
  0.1267    	   1.909    	  0.8209E-03
  0.1326    	   1.537    	  0.8539E-03
  0.1386    	   1.236    	  0.8875E-03
  0.1447    	  0.9929    	  0.9216E-03
  0.1509    	  0.7965    	  0.9557E-03
  0.1573    	  0.6379    	  0.9900E-03
  0.1638    	  0.5099    	  0.1025E-02
  0.1704    	  0.4068    	  0.1061E-02
  0.1771    	  0.3240    	  0.1098E-02
  0.1839    	  0.2575    	  0.1136E-02
  0.1909    	  0.2044    	  0.1175E-02
  0.1979    	  0.1619    	  0.1215E-02
  0.2051    	  0.1280    	  0.1255E-02
  0.2124    	  0.1010    	  0.1296E-02
  0.2199    	  0.7953E-01	  0.1338E-02
  0.2274    	  0.6249E-01	  0.1381E-02
  0.2351    	  0.4900E-01	  0.1424E-02
  0.2429    	  0.3833E-01	  0.1468E-02
  0.2508    	  0.2993E-01	  0.1513E-02
  0.2588    	  0.2332E-01	  0.1559E-02
  0.2669    	  0.1813E-01	  0.1606E-02
  0.2752    	  0.1407E-01	  0.1654E-02
  0.2836    	  0.1089E-01	  0.1703E-02
  0.2921    	  0.8411E-02	  0.1753E-02
  0.3007    	  0.6483E-02	  0.1804E-02
  0.3094    	  0.4986E-02	  0.1855E-02
  0.3183    	  0.3826E-02	  0.1908E-02
  0.3272    	  0.2929E-02	  0.1961E-02
  0.3363    	  0.2237E-02	  0.2015E-02
  0.3455    	  0.1705E-02	  0.2071E-02
  0.3548    	  0.1296E-02	  0.2127E-02
  0.3643    	  0.9834E-03	  0.2184E-02
  0.3739    	  0.7444E-03	  0.2242E-02
  0.3835    	  0.5621E-03	  0.2302E-02
  0.3933    	  0.4235E-03	  0.2362E-02
  0.4033    	  0.3184E-03	  0.2424E-02
  0.4133    	  0.2387E-03	  0.2487E-02
  0.4235    	  0.1786E-03	  0.2551E-02
  0.4337    	  0.1332E-03	  0.2616E-02
  0.4441    	  0.9915E-04	  0.2682E-02
  0.4546    	  0.7361E-04	  0.2749E-02
  0.4653    	  0.5450E-04	  0.2819E-02
  0.4760    	  0.4025E-04	  0.2890E-02
  0.4869    	  0.2964E-04	  0.2963E-02
  0.4979    	  0.2177E-04	  0.3039E-02
  0.5090    	  0.1594E-04	  0.3119E-02
  0.5202    	  0.1163E-04	  0.3203E-02
  0.5316    	  0.8461E-05	  0.3290E-02
  0.5430    	  0.6133E-05	  0.3378E-02
  0.5546    	  0.4430E-05	  0.3467E-02
  0.5663    	  0.3190E-05	  0.3557E-02
  0.5781    	  0.2289E-05	  0.3649E-02
  0.5901    	  0.1637E-05	  0.3743E-02
  0.6021    	  0.1167E-05	  0.3840E-02
  0.6143    	  0.8288E-06	  0.3940E-02
  0.6266    	  0.5866E-06	  0.4040E-02
  0.6390    	  0.4138E-06	  0.4141E-02
  0.6515    	  0.2909E-06	  0.4244E-02
  0.6642    	  0.2038E-06	  0.4347E-02
  0.6769    	  0.1423E-06	  0.4452E-02
  0.6898    	  0.9907E-07	  0.4560E-02
  0.7028    	  0.6871E-07	  0.4678E-02
  0.7160    	  0.4739E-07	  0.4800E-02
  0.7292    	  0.3256E-07	  0.2883E-02


R3  
Energy (eV) EEDF (eV-3/2) Anisotropy
  0.1044E-02	   283.6    	  0.3166E-04
  0.3192E-02	   251.7    	  0.4893E-04
  0.5464E-02	   223.8    	  0.8012E-04
  0.7858E-02	   200.0    	  0.1097E-03
  0.1038E-01	   179.1    	  0.1396E-03
  0.1302E-01	   160.4    	  0.1709E-03
  0.1578E-01	   143.7    	  0.2042E-03
  0.1867E-01	   128.5    	  0.2397E-03
  0.2168E-01	   114.7    	  0.2778E-03
  0.2481E-01	   102.0    	  0.3191E-03
  0.2806E-01	   90.45    	  0.3640E-03
  0.3144E-01	   79.88    	  0.4132E-03
  0.3494E-01	   70.23    	  0.4674E-03
  0.3857E-01	   61.42    	  0.5278E-03
  0.4232E-01	   53.40    	  0.5955E-03
  0.4619E-01	   46.07    	  0.6677E-03
  0.5018E-01	   39.50    	  0.7385E-03
  0.5430E-01	   33.70    	  0.8095E-03
  0.5854E-01	   28.60    	  0.8850E-03
  0.6290E-01	   24.14    	  0.9673E-03
  0.6738E-01	   20.25    	  0.1059E-02
  0.7199E-01	   16.86    	  0.1161E-02
  0.7672E-01	   13.92    	  0.1264E-02
  0.8158E-01	   11.43    	  0.1352E-02
  0.8655E-01	   9.354    	  0.1435E-02
  0.9165E-01	   7.634    	  0.1515E-02
  0.9688E-01	   6.217    	  0.1594E-02
  0.1022    	   5.053    	  0.1673E-02
  0.1077    	   4.099    	  0.1753E-02
  0.1133    	   3.319    	  0.1833E-02
  0.1190    	   2.682    	  0.1913E-02
  0.1248    	   2.164    	  0.1993E-02
  0.1308    	   1.744    	  0.2075E-02
  0.1369    	   1.403    	  0.2159E-02
  0.1431    	   1.128    	  0.2244E-02
  0.1494    	  0.9051    	  0.2329E-02
  0.1559    	  0.7253    	  0.2415E-02
  0.1625    	  0.5801    	  0.2502E-02
  0.1692    	  0.4631    	  0.2591E-02
  0.1760    	  0.3690    	  0.2684E-02
  0.1829    	  0.2935    	  0.2778E-02
  0.1900    	  0.2331    	  0.2875E-02
  0.1972    	  0.1847    	  0.2975E-02
  0.2045    	  0.1461    	  0.3075E-02
  0.2119    	  0.1154    	  0.3178E-02
  0.2195    	  0.9089E-01	  0.3282E-02
  0.2272    	  0.7145E-01	  0.3388E-02
  0.2350    	  0.5605E-01	  0.3497E-02
  0.2429    	  0.4387E-01	  0.3607E-02
  0.2510    	  0.3427E-01	  0.3720E-02
  0.2591    	  0.2671E-01	  0.3835E-02
  0.2674    	  0.2078E-01	  0.3953E-02
  0.2759    	  0.1612E-01	  0.4073E-02
  0.2844    	  0.1249E-01	  0.4195E-02
  0.2931    	  0.9648E-02	  0.4320E-02
  0.3019    	  0.7438E-02	  0.4447E-02
  0.3108    	  0.5722E-02	  0.4577E-02
  0.3198    	  0.4391E-02	  0.4709E-02
  0.3290    	  0.3362E-02	  0.4842E-02
  0.3382    	  0.2569E-02	  0.4979E-02
  0.3477    	  0.1958E-02	  0.5117E-02
  0.3572    	  0.1489E-02	  0.5258E-02
  0.3668    	  0.1129E-02	  0.5402E-02
  0.3766    	  0.8548E-03	  0.5549E-02
  0.3865    	  0.6455E-03	  0.5698E-02
  0.3965    	  0.4863E-03	  0.5851E-02
  0.4067    	  0.3655E-03	  0.6006E-02
  0.4169    	  0.2740E-03	  0.6165E-02
  0.4273    	  0.2049E-03	  0.6325E-02
  0.4378    	  0.1528E-03	  0.6489E-02
  0.4485    	  0.1137E-03	  0.6656E-02
  0.4592    	  0.8437E-04	  0.6827E-02
  0.4701    	  0.6244E-04	  0.7002E-02
  0.4811    	  0.4608E-04	  0.7182E-02
  0.4922    	  0.3392E-04	  0.7369E-02
  0.5035    	  0.2489E-04	  0.7564E-02
  0.5149    	  0.1820E-04	  0.7771E-02
  0.5264    	  0.1327E-04	  0.7986E-02
  0.5380    	  0.9637E-05	  0.8206E-02
  0.5497    	  0.6976E-05	  0.8428E-02
  0.5616    	  0.5032E-05	  0.8653E-02
  0.5736    	  0.3618E-05	  0.8882E-02
  0.5857    	  0.2592E-05	  0.9116E-02
  0.5979    	  0.1851E-05	  0.9357E-02
  0.6103    	  0.1317E-05	  0.9605E-02
  0.6228    	  0.9335E-06	  0.9856E-02
  0.6354    	  0.6594E-06	  0.1011E-01
  0.6481    	  0.4642E-06	  0.1037E-01
  0.6609    	  0.3256E-06	  0.1063E-01
  0.6739    	  0.2276E-06	  0.1090E-01
  0.6870    	  0.1586E-06	  0.1117E-01
  0.7002    	  0.1101E-06	  0.1144E-01
  0.7136    	  0.7614E-07	  0.1171E-01
  0.7270    	  0.5243E-07	  0.1199E-01
  0.7406    	  0.3591E-07	  0.7239E-02


R4  
Energy (eV) EEDF (eV-3/2) Anisotropy
  0.1101E-02	   263.7    	  0.6503E-04
  0.3372E-02	   233.2    	  0.9992E-04
  0.5780E-02	   207.0    	  0.1627E-03
  0.8324E-02	   184.8    	  0.2225E-03
  0.1101E-01	   165.2    	  0.2834E-03
  0.1382E-01	   147.8    	  0.3475E-03
  0.1678E-01	   132.1    	  0.4158E-03
  0.1987E-01	   117.9    	  0.4890E-03
  0.2310E-01	   105.0    	  0.5680E-03
  0.2647E-01	   93.13    	  0.6540E-03
  0.2997E-01	   82.32    	  0.7484E-03
  0.3361E-01	   72.45    	  0.8522E-03
  0.3738E-01	   63.44    	  0.9677E-03
  0.4130E-01	   55.23    	  0.1097E-02
  0.4535E-01	   47.74    	  0.1239E-02
  0.4954E-01	   40.97    	  0.1380E-02
  0.5386E-01	   34.98    	  0.1521E-02
  0.5832E-01	   29.70    	  0.1670E-02
  0.6292E-01	   25.08    	  0.1832E-02
  0.6765E-01	   21.05    	  0.2013E-02
  0.7252E-01	   17.53    	  0.2214E-02
  0.7753E-01	   14.47    	  0.2411E-02
  0.8268E-01	   11.89    	  0.2582E-02
  0.8796E-01	   9.741    	  0.2743E-02
  0.9338E-01	   7.959    	  0.2898E-02
  0.9893E-01	   6.490    	  0.3053E-02
  0.1046    	   5.282    	  0.3209E-02
  0.1105    	   4.290    	  0.3365E-02
  0.1164    	   3.478    	  0.3522E-02
  0.1225    	   2.815    	  0.3679E-02
  0.1288    	   2.275    	  0.3839E-02
  0.1351    	   1.836    	  0.4001E-02
  0.1417    	   1.480    	  0.4167E-02
  0.1483    	   1.192    	  0.4334E-02
  0.1551    	  0.9580    	  0.4502E-02
  0.1620    	  0.7687    	  0.4672E-02
  0.1691    	  0.6156    	  0.4847E-02
  0.1763    	  0.4921    	  0.5028E-02
  0.1836    	  0.3926    	  0.5215E-02
  0.1911    	  0.3127    	  0.5406E-02
  0.1987    	  0.2486    	  0.5601E-02
  0.2064    	  0.1972    	  0.5799E-02
  0.2143    	  0.1562    	  0.6001E-02
  0.2223    	  0.1234    	  0.6207E-02
  0.2305    	  0.9725E-01	  0.6418E-02
  0.2388    	  0.7650E-01	  0.6632E-02
  0.2472    	  0.6004E-01	  0.6852E-02
  0.2558    	  0.4702E-01	  0.7076E-02
  0.2645    	  0.3674E-01	  0.7305E-02
  0.2733    	  0.2865E-01	  0.7539E-02
  0.2823    	  0.2229E-01	  0.7779E-02
  0.2914    	  0.1730E-01	  0.8023E-02
  0.3007    	  0.1340E-01	  0.8272E-02
  0.3101    	  0.1035E-01	  0.8527E-02
  0.3196    	  0.7977E-02	  0.8785E-02
  0.3292    	  0.6134E-02	  0.9049E-02
  0.3390    	  0.4705E-02	  0.9317E-02
  0.3490    	  0.3600E-02	  0.9590E-02
  0.3591    	  0.2749E-02	  0.9869E-02
  0.3693    	  0.2093E-02	  0.1015E-01
  0.3796    	  0.1591E-02	  0.1044E-01
  0.3901    	  0.1205E-02	  0.1074E-01
  0.4007    	  0.9114E-03	  0.1104E-01
  0.4115    	  0.6873E-03	  0.1135E-01
  0.4224    	  0.5169E-03	  0.1167E-01
  0.4334    	  0.3877E-03	  0.1199E-01
  0.4446    	  0.2901E-03	  0.1232E-01
  0.4559    	  0.2164E-03	  0.1265E-01
  0.4673    	  0.1610E-03	  0.1300E-01
  0.4789    	  0.1194E-03	  0.1335E-01
  0.4906    	  0.8835E-04	  0.1372E-01
  0.5025    	  0.6515E-04	  0.1411E-01
  0.5144    	  0.4788E-04	  0.1451E-01
  0.5266    	  0.3505E-04	  0.1494E-01
  0.5388    	  0.2557E-04	  0.1538E-01
  0.5512    	  0.1859E-04	  0.1582E-01
  0.5638    	  0.1346E-04	  0.1627E-01
  0.5764    	  0.9714E-05	  0.1672E-01
  0.5892    	  0.6985E-05	  0.1719E-01
  0.6022    	  0.5004E-05	  0.1767E-01
  0.6153    	  0.3571E-05	  0.1817E-01
  0.6285    	  0.2539E-05	  0.1867E-01
  0.6419    	  0.1798E-05	  0.1918E-01
  0.6553    	  0.1269E-05	  0.1970E-01
  0.6690    	  0.8920E-06	  0.2023E-01
  0.6827    	  0.6247E-06	  0.2078E-01
  0.6967    	  0.4359E-06	  0.2133E-01
  0.7107    	  0.3028E-06	  0.2188E-01
  0.7249    	  0.2094E-06	  0.2243E-01
  0.7392    	  0.1442E-06	  0.2299E-01
  0.7536    	  0.9882E-07	  0.2355E-01
  0.7682    	  0.6743E-07	  0.2410E-01
  0.7830    	  0.4582E-07	  0.2466E-01
  0.7978    	  0.3101E-07	  0.1492E-01


R5  
Energy (eV) EEDF (eV-3/2) Anisotropy
  0.1248E-02	   224.0    	  0.1172E-03
  0.3831E-02	   196.6    	  0.1780E-03
  0.6590E-02	   173.7    	  0.2868E-03
  0.9523E-02	   154.4    	  0.3919E-03
  0.1263E-01	   137.5    	  0.5005E-03
  0.1592E-01	   122.4    	  0.6163E-03
  0.1938E-01	   108.9    	  0.7409E-03
  0.2301E-01	   96.61    	  0.8759E-03
  0.2682E-01	   85.43    	  0.1024E-02
  0.3080E-01	   75.23    	  0.1187E-02
  0.3496E-01	   65.94    	  0.1369E-02
  0.3930E-01	   57.46    	  0.1573E-02
  0.4381E-01	   49.73    	  0.1803E-02
  0.4849E-01	   42.70    	  0.2041E-02
  0.5336E-01	   36.45    	  0.2276E-02
  0.5839E-01	   30.93    	  0.2525E-02
  0.6360E-01	   26.09    	  0.2798E-02
  0.6899E-01	   21.86    	  0.3105E-02
  0.7455E-01	   18.16    	  0.3431E-02
  0.8029E-01	   14.98    	  0.3735E-02
  0.8620E-01	   12.30    	  0.4004E-02
  0.9228E-01	   10.08    	  0.4260E-02
  0.9855E-01	   8.242    	  0.4513E-02
  0.1050    	   6.726    	  0.4767E-02
  0.1116    	   5.479    	  0.5023E-02
  0.1184    	   4.455    	  0.5278E-02
  0.1253    	   3.618    	  0.5537E-02
  0.1325    	   2.934    	  0.5800E-02
  0.1398    	   2.376    	  0.6069E-02
  0.1473    	   1.921    	  0.6342E-02
  0.1550    	   1.552    	  0.6615E-02
  0.1628    	   1.251    	  0.6894E-02
  0.1708    	   1.007    	  0.7183E-02
  0.1790    	  0.8084    	  0.7482E-02
  0.1874    	  0.6479    	  0.7791E-02
  0.1959    	  0.5183    	  0.8108E-02
  0.2046    	  0.4138    	  0.8431E-02
  0.2135    	  0.3297    	  0.8760E-02
  0.2226    	  0.2620    	  0.9098E-02
  0.2318    	  0.2078    	  0.9444E-02
  0.2412    	  0.1644    	  0.9798E-02
  0.2508    	  0.1297    	  0.1016E-01
  0.2606    	  0.1021    	  0.1053E-01
  0.2705    	  0.8024E-01	  0.1091E-01
  0.2806    	  0.6288E-01	  0.1131E-01
  0.2909    	  0.4915E-01	  0.1171E-01
  0.3014    	  0.3833E-01	  0.1212E-01
  0.3120    	  0.2981E-01	  0.1254E-01
  0.3228    	  0.2313E-01	  0.1296E-01
  0.3338    	  0.1790E-01	  0.1340E-01
  0.3450    	  0.1381E-01	  0.1385E-01
  0.3564    	  0.1063E-01	  0.1431E-01
  0.3679    	  0.8161E-02	  0.1477E-01
  0.3796    	  0.6248E-02	  0.1525E-01
  0.3914    	  0.4771E-02	  0.1575E-01
  0.4035    	  0.3633E-02	  0.1625E-01
  0.4157    	  0.2759E-02	  0.1677E-01
  0.4281    	  0.2088E-02	  0.1730E-01
  0.4407    	  0.1576E-02	  0.1784E-01
  0.4534    	  0.1186E-02	  0.1840E-01
  0.4663    	  0.8895E-03	  0.1897E-01
  0.4794    	  0.6650E-03	  0.1957E-01
  0.4927    	  0.4955E-03	  0.2019E-01
  0.5061    	  0.3678E-03	  0.2085E-01
  0.5197    	  0.2720E-03	  0.2155E-01
  0.5335    	  0.2002E-03	  0.2227E-01
  0.5475    	  0.1468E-03	  0.2301E-01
  0.5617    	  0.1072E-03	  0.2376E-01
  0.5760    	  0.7797E-04	  0.2452E-01
  0.5905    	  0.5647E-04	  0.2531E-01
  0.6051    	  0.4073E-04	  0.2613E-01
  0.6200    	  0.2925E-04	  0.2696E-01
  0.6350    	  0.2091E-04	  0.2781E-01
  0.6502    	  0.1489E-04	  0.2868E-01
  0.6656    	  0.1055E-04	  0.2957E-01
  0.6811    	  0.7449E-05	  0.3048E-01
  0.6968    	  0.5235E-05	  0.3142E-01
  0.7127    	  0.3661E-05	  0.3236E-01
  0.7288    	  0.2547E-05	  0.3330E-01
  0.7451    	  0.1762E-05	  0.3425E-01
  0.7615    	  0.1213E-05	  0.3522E-01
  0.7781    	  0.8306E-06	  0.3619E-01
  0.7949    	  0.5658E-06	  0.3718E-01
  0.8118    	  0.3834E-06	  0.3819E-01
  0.8289    	  0.2585E-06	  0.3920E-01
  0.8462    	  0.1734E-06	  0.4023E-01
  0.8637    	  0.1158E-06	  0.4126E-01
  0.8813    	  0.7688E-07	  0.4231E-01
  0.8992    	  0.5080E-07	  0.4337E-01
  0.9172    	  0.3341E-07	  0.2658E-01


R6  
Energy (eV) EEDF (eV-3/2) Anisotropy
  0.1424E-02	   170.4    	  0.1830E-03
  0.4384E-02	   149.1    	  0.2742E-03
  0.7571E-02	   131.9    	  0.4358E-03
  0.1098E-01	   117.3    	  0.5946E-03
  0.1463E-01	   104.5    	  0.7612E-03
  0.1849E-01	   93.15    	  0.9403E-03
  0.2259E-01	   82.85    	  0.1135E-02
  0.2691E-01	   73.48    	  0.1348E-02
  0.3145E-01	   64.91    	  0.1585E-02
  0.3623E-01	   57.07    	  0.1851E-02
  0.4123E-01	   49.89    	  0.2151E-02
  0.4646E-01	   43.30    	  0.2478E-02
  0.5191E-01	   37.33    	  0.2809E-02
  0.5759E-01	   32.01    	  0.3151E-02
  0.6350E-01	   27.29    	  0.3526E-02
  0.6963E-01	   23.11    	  0.3946E-02
  0.7599E-01	   19.41    	  0.4379E-02
  0.8258E-01	   16.22    	  0.4767E-02
  0.8940E-01	   13.52    	  0.5118E-02
  0.9644E-01	   11.24    	  0.5459E-02
  0.1037    	   9.339    	  0.5799E-02
